2018/04/24	15:18
Amplitude: 0.10 V
Freq  (Hz) 	 Gain (dB)  	 Phase (deg)
 10.058             20.076            179.938
 15.832             20.077            179.986
 25.146             20.079            180.005
 39.861             20.078            179.964
 63.144             20.072            179.968
100.024             20.053            179.965
158.511             20.026            179.861
251.271             20.022            179.802
398.047             20.024            179.631
630.878             20.026            179.430
1000.054             20.020            179.122
1584.925             20.021            178.589
2511.963             20.018            177.804
3981.031             20.006            176.438
6309.524             19.983            174.416
9999.983             19.927            171.207
15848.875             19.781            166.106
25118.887             19.429            158.437
39810.687             18.612            147.032
63095.801             16.957            132.819
100000.016             14.307            116.471
2018/04/24	15:35
Amplitude: 0.10 V
Freq  (Hz) 	 Gain (dB)  	 Phase (deg)
 10.058             20.069            179.943
 11.176             20.071            180.022
 12.666             20.073            179.969
 14.156             20.069            180.002
 15.832             20.073            180.004
 17.695             20.073            180.040
 19.930             20.072            180.007
 22.352             20.071            179.941
 25.146             20.072            179.968
 28.126             20.072            180.030
 31.665             20.071            179.925
 35.390             20.073            179.981
 39.861             20.074            179.977
 44.703             20.070            179.970
 50.105             20.070            179.973
 56.252             20.068            179.944
 63.144             20.060            179.882
 70.781             20.063            179.902
 79.349             20.058            179.930
 89.034             20.053            179.918
100.024             20.047            179.966
112.131             20.040            179.896
125.915             20.028            179.885
141.189             20.025            179.872
158.511             20.017            179.812
177.883             20.017            179.801
199.489             20.020            179.796
223.890             20.015            179.834
251.271             20.017            179.728
281.818             20.019            179.782
316.277             20.019            179.751
354.834             20.016            179.677
398.047             20.017            179.650
446.662             20.018            179.647
501.238             20.019            179.558
562.333             20.016            179.475
630.878             20.018            179.417
707.991             20.017            179.369
794.418             20.021            179.323
891.276             20.019            179.235
1000.054             20.021            179.104
1122.057             20.019            178.970
1258.962             20.015            178.891
1412.630             20.017            178.748
1584.925             20.014            178.580
1778.267             20.017            178.439
1995.265             20.015            178.242
2238.713             20.014            178.041
2511.963             20.015            177.730
2818.368             20.012            177.509
3162.213             20.009            177.176
3548.153             20.007            176.939
3981.031             20.005            176.491
4466.809             19.999            176.018
5011.819             19.994            175.529
5623.326             19.991            175.066
6309.524             19.983            174.409
7079.542             19.969            173.773
7943.250             19.956            172.939
8912.571             19.943            172.129
9999.983             19.920            171.173
11220.202             19.898            170.101
12589.246             19.866            168.989
14125.369             19.828            167.621
15848.875             19.773            166.171
17782.860             19.715            164.549
19952.655             19.637            162.687
22387.132             19.542            160.683
25118.887             19.423            158.439
28183.870             19.276            155.911
31622.685             19.094            153.294
35481.341             18.877            150.230
39810.687             18.608            147.088
44668.280             18.289            143.734
50118.752             17.906            140.202
56234.188             17.464            136.578
63095.801             16.955            132.775
70794.486             16.381            129.102
79432.875             15.741            125.392
89125.149             15.045            121.746
100000.016             14.304            116.651
